Wavelength (nm),Sum,Na I (4.5e-02),Na II (9.5e-01),Na III (3.4e-19)
200.11,3.742e-34,,,3.742e-34
200.16,9.726e-34,,,9.726e-34
200.21,2.234e-33,,,2.234e-33
200.26,4.532e-33,,,4.532e-33
200.31,8.122e-33,,,8.122e-33
200.36,1.286e-32,,,1.286e-32
200.41,1.798e-32,,,1.798e-32
200.46,2.220e-32,,,2.220e-32
200.51,2.422e-32,,,2.422e-32
200.56,2.333e-32,,,2.333e-32
200.61,1.985e-32,,,1.985e-32
200.66,1.493e-32,,,1.493e-32
200.72,9.012e-33,,,9.012e-33
200.77,5.182e-33,,,5.182e-33
200.82,2.657e-33,,,2.657e-33
200.87,1.241e-33,,,1.241e-33
200.92,5.682e-34,,,5.682e-34
200.97,3.142e-34,,,3.142e-34
201.02,2.648e-34,,,2.648e-34
201.07,3.000e-34,,,3.000e-34
201.12,3.536e-34,,,3.536e-34
201.17,3.866e-34,,,3.866e-34
201.22,3.792e-34,,,3.792e-34
201.27,3.306e-34,,,3.306e-34
201.32,2.556e-34,,,2.556e-34
201.37,1.753e-34,,,1.753e-34
201.42,1.070e-34,,,1.070e-34
201.47,5.868e-35,,,5.868e-35
201.52,2.961e-35,,,2.961e-35
201.57,1.465e-35,,,1.465e-35
201.62,8.051e-36,,,8.051e-36
201.67,5.498e-36,,,5.498e-36
201.72,4.529e-36,,,4.529e-36
201.77,4.119e-36,,,4.119e-36
201.82,4.182e-36,,,4.182e-36
201.87,5.175e-36,,,5.175e-36
201.92,7.793e-36,,,7.793e-36
201.97,1.268e-35,,,1.268e-35
202.02,2.010e-35,,,2.010e-35
202.07,2.957e-35,,,2.957e-35
202.12,3.964e-35,,,3.964e-35
202.17,4.816e-35,,,4.816e-35
202.22,5.287e-35,,,5.287e-35
202.27,5.241e-35,,,5.241e-35
202.32,4.692e-35,,,4.692e-35
202.37,3.818e-35,,,3.818e-35
202.42,2.900e-35,,,2.900e-35
202.47,2.258e-35,,,2.258e-35
202.52,2.219e-35,,,2.219e-35
202.57,3.092e-35,,,3.092e-35
202.62,5.124e-35,,,5.124e-35
202.67,8.370e-35,,,8.370e-35
202.72,1.253e-34,,,1.253e-34
202.77,1.688e-34,,,1.688e-34
202.82,2.052e-34,,,2.052e-34
202.87,2.272e-34,,,2.272e-34
202.92,2.331e-34,,,2.331e-34
202.97,2.261e-34,,,2.261e-34
203.02,2.110e-34,,,2.110e-34
203.07,1.911e-34,,,1.911e-34
203.12,1.667e-34,,,1.667e-34
203.17,1.380e-34,,,1.380e-34
203.22,1.070e-34,,,1.070e-34
203.27,7.841e-35,,,7.841e-35
203.32,5.737e-35,,,5.737e-35
203.37,4.723e-35,,,4.723e-35
203.42,4.814e-35,,,4.814e-35
203.47,5.713e-35,,,5.713e-35
203.52,6.933e-35,,,6.933e-35
203.57,7.971e-35,,,7.971e-35
203.62,8.468e-35,,,8.468e-35
203.67,8.308e-35,,,8.308e-35
203.72,7.600e-35,,,7.600e-35
203.77,6.609e-35,,,6.609e-35
203.82,5.691e-35,,,5.691e-35
203.87,5.281e-35,,,5.281e-35
203.92,5.923e-35,,,5.923e-35
203.97,8.253e-35,,,8.253e-35
204.02,1.292e-34,,,1.292e-34
204.07,2.037e-34,,,2.037e-34
204.12,3.053e-34,,,3.053e-34
204.17,4.244e-34,,,4.244e-34
204.22,5.413e-34,,,5.413e-34
204.27,6.295e-34,,,6.295e-34
204.32,6.651e-34,,,6.651e-34
204.37,6.380e-34,,,6.380e-34
204.42,5.569e-34,,,5.569e-34
204.47,4.448e-34,,,4.448e-34
204.52,3.282e-34,,,3.282e-34
204.57,2.268e-34,,,2.268e-34
204.62,1.494e-34,,,1.494e-34
204.67,9.610e-35,,,9.610e-35
204.72,6.252e-35,,,6.252e-35
204.77,4.309e-35,,,4.309e-35
204.82,3.265e-35,,,3.265e-35
204.87,2.709e-35,,,2.709e-35
204.92,2.376e-35,,,2.376e-35
204.97,2.146e-35,,,2.146e-35
205.02,1.997e-35,,,1.997e-35
205.07,1.933e-35,,,1.933e-35
205.12,1.935e-35,,,1.935e-35
205.17,1.962e-35,,,1.962e-35
205.22,1.994e-35,,,1.994e-35
205.27,2.057e-35,,,2.057e-35
205.32,2.208e-35,,,2.208e-35
205.37,2.477e-35,,,2.477e-35
205.42,2.814e-35,,,2.814e-35
205.47,3.099e-35,,,3.099e-35
205.52,3.201e-35,,,3.201e-35
205.57,3.069e-35,,,3.069e-35
205.62,2.773e-35,,,2.773e-35
205.67,2.481e-35,,,2.481e-35
205.72,2.368e-35,,,2.368e-35
205.77,2.542e-35,,,2.542e-35
205.82,2.997e-35,,,2.997e-35
205.87,3.625e-35,,,3.625e-35
205.92,4.258e-35,,,4.258e-35
205.97,4.720e-35,,,4.720e-35
206.02,4.892e-35,,,4.892e-35
206.07,4.758e-35,,,4.758e-35
206.12,4.444e-35,,,4.444e-35
206.17,4.226e-35,,,4.226e-35
206.22,4.575e-35,,,4.575e-35
206.27,6.271e-35,,,6.271e-35
206.32,1.054e-34,,,1.054e-34
206.37,1.901e-34,,,1.901e-34
206.42,3.320e-34,,,3.320e-34
206.47,5.344e-34,,,5.344e-34
206.52,7.768e-34,,,7.768e-34
206.57,1.012e-33,,,1.012e-33
206.62,1.176e-33,,,1.176e-33
206.67,1.218e-33,,,1.218e-33
206.72,1.124e-33,,,1.124e-33
206.77,9.236e-34,,,9.236e-34
206.82,6.757e-34,,,6.757e-34
206.87,4.409e-34,,,4.409e-34
206.92,2.582e-34,,,2.582e-34
206.97,1.393e-34,,,1.393e-34
207.02,7.566e-35,,,7.566e-35
207.07,5.081e-35,,,5.081e-35
207.12,4.842e-35,,,4.842e-35
207.17,5.574e-35,,,5.574e-35
207.22,6.377e-35,,,6.377e-35
207.27,6.693e-35,,,6.693e-35
207.32,6.299e-35,,,6.299e-35
207.37,5.287e-35,,,5.287e-35
207.42,3.952e-35,,,3.952e-35
207.47,2.629e-35,,,2.629e-35
207.52,1.557e-35,,,1.557e-35
207.57,8.211e-36,,,8.211e-36
207.62,3.853e-36,,,3.853e-36
207.67,1.610e-36,,,1.610e-36
207.72,5.985e-37,,,5.985e-37
207.77,1.981e-37,,,1.981e-37
207.82,5.836e-38,,,5.836e-38
207.87,1.531e-38,,,1.531e-38
207.92,3.573e-39,,,3.573e-39
207.97,7.424e-40,,,7.424e-40
208.02,1.373e-40,,,1.373e-40
208.07,2.261e-41,,,2.261e-41
208.12,3.313e-42,,,3.313e-42
208.17,4.322e-43,,,4.322e-43
208.22,5.018e-44,,,5.018e-44
208.27,5.187e-45,,,5.187e-45
208.32,4.776e-46,,,4.776e-46
208.37,4.408e-47,,,4.408e-47
208.42,6.219e-47,,,6.219e-47
208.47,6.278e-46,,,6.278e-46
208.52,5.923e-45,,,5.923e-45
208.57,4.987e-44,,,4.987e-44
208.62,3.747e-43,,,3.747e-43
208.67,2.513e-42,,,2.513e-42
208.72,1.503e-41,,,1.503e-41
208.77,8.025e-41,,,8.025e-41
208.82,3.823e-40,,,3.823e-40
208.87,1.625e-39,,,1.625e-39
208.92,6.163e-39,,,6.163e-39
208.97,2.086e-38,,,2.086e-38
209.02,6.299e-38,,,6.299e-38
209.07,1.697e-37,,,1.697e-37
209.12,4.082e-37,,,4.082e-37
209.17,8.757e-37,,,8.757e-37
209.22,1.677e-36,,,1.677e-36
209.27,2.865e-36,,,2.865e-36
209.32,4.368e-36,,,4.368e-36
209.37,5.947e-36,,,5.947e-36
209.42,7.237e-36,,,7.237e-36
209.47,7.900e-36,,,7.900e-36
209.52,7.815e-36,,,7.815e-36
209.57,7.210e-36,,,7.210e-36
209.62,6.643e-36,,,6.643e-36
209.67,6.849e-36,,,6.849e-36
209.72,8.489e-36,,,8.489e-36
209.77,1.191e-35,,,1.191e-35
209.82,1.698e-35,,,1.698e-35
209.87,2.318e-35,,,2.318e-35
209.92,2.987e-35,,,2.987e-35
209.97,3.685e-35,,,3.685e-35
210.02,4.457e-35,,,4.457e-35
210.07,5.382e-35,,,5.382e-35
210.12,6.477e-35,,,6.477e-35
210.17,7.610e-35,,,7.610e-35
210.22,8.488e-35,,,8.488e-35
210.27,8.776e-35,,,8.776e-35
210.32,8.280e-35,,,8.280e-35
210.37,7.060e-35,,,7.060e-35
210.42,5.413e-35,,,5.413e-35
210.47,3.723e-35,,,3.723e-35
210.52,2.294e-35,,,2.294e-35
210.57,1.267e-35,,,1.267e-35
210.62,6.289e-36,,,6.289e-36
210.67,2.825e-36,,,2.825e-36
210.72,1.178e-36,,,1.178e-36
210.77,4.983e-37,,,4.983e-37
210.82,2.634e-37,,,2.634e-37
210.87,2.067e-37,,,2.067e-37
210.92,2.128e-37,,,2.128e-37
210.97,2.432e-37,,,2.432e-37
211.02,2.953e-37,,,2.953e-37
211.07,3.833e-37,,,3.833e-37
211.12,5.368e-37,,,5.368e-37
211.17,8.269e-37,,,8.269e-37
211.22,1.433e-36,,,1.433e-36
211.27,2.750e-36,,,2.750e-36
211.32,5.477e-36,,,5.477e-36
211.37,1.058e-35,,,1.058e-35
211.42,1.900e-35,,,1.900e-35
211.47,3.103e-35,,,3.103e-35
211.52,4.563e-35,,,4.563e-35
211.57,6.020e-35,,,6.020e-35
211.62,7.111e-35,,,7.111e-35
211.67,7.516e-35,,,7.516e-35
211.72,7.108e-35,,,7.108e-35
211.77,6.014e-35,,,6.014e-35
211.82,4.552e-35,,,4.552e-35
211.87,3.085e-35,,,3.085e-35
211.92,1.875e-35,,,1.875e-35
211.97,1.025e-35,,,1.025e-35
212.02,5.095e-36,,,5.095e-36
212.07,2.381e-36,,,2.381e-36
212.12,1.177e-36,,,1.177e-36
212.17,8.538e-37,,,8.538e-37
212.22,1.165e-36,,,1.165e-36
212.27,2.218e-36,,,2.218e-36
212.32,4.415e-36,,,4.415e-36
212.37,8.333e-36,,,8.333e-36
212.42,1.448e-35,,,1.448e-35
212.47,2.290e-35,,,2.290e-35
212.52,3.278e-35,,,3.278e-35
212.57,4.234e-35,,,4.234e-35
212.62,4.927e-35,,,4.927e-35
212.67,5.162e-35,,,5.162e-35
212.72,4.866e-35,,,4.866e-35
212.77,4.130e-35,,,4.130e-35
212.82,3.158e-35,,,3.158e-35
212.87,2.176e-35,,,2.176e-35
212.92,1.353e-35,,,1.353e-35
212.97,7.593e-36,,,7.593e-36
213.02,3.853e-36,,,3.853e-36
213.07,1.769e-36,,,1.769e-36
213.12,7.353e-37,,,7.353e-37
213.17,2.770e-37,,,2.770e-37
213.22,9.485e-38,,,9.485e-38
213.27,3.107e-38,,,3.107e-38
213.32,1.806e-38,,,1.806e-38
213.37,5.010e-38,,,5.010e-38
213.42,2.104e-37,,,2.104e-37
213.47,8.228e-37,,,8.228e-37
213.52,2.892e-36,,,2.892e-36
213.57,9.119e-36,,,9.119e-36
213.62,2.578e-35,,,2.578e-35
213.67,6.539e-35,,,6.539e-35
213.72,1.487e-34,,,1.487e-34
213.77,3.034e-34,,,3.034e-34
213.82,5.553e-34,,,5.553e-34
213.87,9.120e-34,,,9.120e-34
213.92,1.344e-33,,,1.344e-33
213.97,1.781e-33,,,1.781e-33
214.02,2.125e-33,,,2.125e-33
214.07,2.295e-33,,,2.295e-33
214.12,2.268e-33,,,2.268e-33
214.17,2.094e-33,,,2.094e-33
214.22,1.875e-33,,,1.875e-33
214.27,1.709e-33,,,1.709e-33
214.32,1.640e-33,,,1.640e-33
214.37,1.641e-33,,,1.641e-33
214.42,1.641e-33,,,1.641e-33
214.47,1.566e-33,,,1.566e-33
214.52,1.384e-33,,,1.384e-33
214.57,1.117e-33,,,1.117e-33
214.62,8.202e-34,,,8.202e-34
214.67,5.505e-34,,,5.505e-34
214.72,3.442e-34,,,3.442e-34
214.77,2.086e-34,,,2.086e-34
214.82,1.308e-34,,,1.308e-34
214.87,9.030e-35,,,9.030e-35
214.92,6.963e-35,,,6.963e-35
214.97,5.804e-35,,,5.804e-35
215.02,5.057e-35,,,5.057e-35
215.07,4.532e-35,,,4.532e-35
215.12,4.120e-35,,,4.120e-35
215.17,3.707e-35,,,3.707e-35
215.22,3.203e-35,,,3.203e-35
215.27,2.590e-35,,,2.590e-35
215.32,1.925e-35,,,1.925e-35
215.37,1.301e-35,,,1.301e-35
215.42,7.948e-36,,,7.948e-36
215.47,4.379e-36,,,4.379e-36
215.52,2.183e-36,,,2.183e-36
215.57,1.007e-36,,,1.007e-36
215.62,4.740e-37,,,4.740e-37
215.67,2.977e-37,,,2.977e-37
215.72,2.999e-37,,,2.999e-37
215.77,3.821e-37,,,3.821e-37
215.82,4.917e-37,,,4.917e-37
215.87,6.056e-37,,,6.056e-37
215.92,7.323e-37,,,7.323e-37
215.97,9.189e-37,,,9.189e-37
216.02,1.246e-36,,,1.246e-36
216.07,1.797e-36,,,1.797e-36
216.12,2.607e-36,,,2.607e-36
216.17,3.608e-36,,,3.608e-36
216.22,4.615e-36,,,4.615e-36
216.27,5.369e-36,,,5.369e-36
216.32,5.643e-36,,,5.643e-36
216.37,5.343e-36,,,5.343e-36
216.42,4.554e-36,,,4.554e-36
216.47,3.501e-36,,,3.501e-36
216.52,2.452e-36,,,2.452e-36
216.57,1.623e-36,,,1.623e-36
216.62,1.139e-36,,,1.139e-36
216.67,1.042e-36,,,1.042e-36
216.72,1.317e-36,,,1.317e-36
216.77,1.903e-36,,,1.903e-36
216.82,2.684e-36,,,2.684e-36
216.87,3.493e-36,,,3.493e-36
216.92,4.150e-36,,,4.150e-36
216.97,4.552e-36,,,4.552e-36
217.02,4.783e-36,,,4.783e-36
217.07,5.177e-36,,,5.177e-36
217.12,6.297e-36,,,6.297e-36
217.17,8.780e-36,,,8.780e-36
217.22,1.306e-35,,,1.306e-35
217.27,1.902e-35,,,1.902e-35
217.32,2.585e-35,,,2.585e-35
217.37,3.202e-35,,,3.202e-35
217.42,3.587e-35,,,3.587e-35
217.47,3.621e-35,,,3.621e-35
217.52,3.294e-35,,,3.294e-35
217.57,2.705e-35,,,2.705e-35
217.62,2.037e-35,,,2.037e-35
217.67,1.526e-35,,,1.526e-35
217.72,1.513e-35,,,1.513e-35
217.77,2.669e-35,,,2.669e-35
217.82,6.429e-35,,,6.429e-35
217.87,1.560e-34,,,1.560e-34
217.92,3.485e-34,,,3.485e-34
217.97,7.033e-34,,,7.033e-34
218.02,1.279e-33,,,1.279e-33
218.07,2.094e-33,,,2.094e-33
218.12,3.088e-33,,,3.088e-33
218.17,4.099e-33,,,4.099e-33
218.22,4.900e-33,,,4.900e-33
218.27,5.273e-33,,,5.273e-33
218.32,5.110e-33,,,5.110e-33
218.37,4.458e-33,,,4.458e-33
218.42,3.503e-33,,,3.503e-33
218.47,2.478e-33,,,2.478e-33
218.52,1.578e-33,,,1.578e-33
218.57,9.053e-34,,,9.053e-34
218.62,4.677e-34,,,4.677e-34
218.67,2.177e-34,,,2.177e-34
218.72,9.142e-35,,,9.142e-35
218.77,3.482e-35,,,3.482e-35
218.82,1.230e-35,,,1.230e-35
218.87,4.399e-36,,,4.399e-36
218.92,2.017e-36,,,2.017e-36
218.97,1.432e-36,,,1.432e-36
219.02,1.300e-36,,,1.300e-36
219.07,1.197e-36,,,1.197e-36
219.12,1.036e-36,,,1.036e-36
219.17,8.498e-37,,,8.498e-37
219.22,7.155e-37,,,7.155e-37
219.27,7.155e-37,,,7.155e-37
219.32,9.186e-37,,,9.186e-37
219.37,1.361e-36,,,1.361e-36
219.42,2.030e-36,,,2.030e-36
219.47,2.877e-36,,,2.877e-36
219.52,3.948e-36,,,3.948e-36
219.57,5.937e-36,,,5.937e-36
219.62,1.197e-35,,,1.197e-35
219.67,3.277e-35,,,3.277e-35
219.72,9.973e-35,,,9.973e-35
219.77,2.931e-34,,,2.931e-34
219.82,7.912e-34,,,7.912e-34
219.87,1.936e-33,,,1.936e-33
219.92,4.279e-33,,,4.279e-33
219.97,8.533e-33,,,8.533e-33
220.02,1.535e-32,,,1.535e-32
220.07,2.492e-32,,,2.492e-32
220.12,3.648e-32,,,3.648e-32
220.17,4.818e-32,,,4.818e-32
220.22,5.741e-32,,,5.741e-32
220.27,6.170e-32,,,6.170e-32
220.32,5.982e-32,,,5.982e-32
220.37,5.232e-32,,,5.232e-32
220.42,4.128e-32,,,4.128e-32
220.47,2.938e-32,,,2.938e-32
220.52,1.887e-32,,,1.887e-32
220.57,1.093e-32,,,1.093e-32
220.62,5.714e-33,,,5.714e-33
220.67,2.698e-33,,,2.698e-33
220.72,1.153e-33,,,1.153e-33
220.77,4.508e-34,,,4.508e-34
220.82,1.694e-34,,,1.694e-34
220.87,8.038e-35,,,8.038e-35
220.92,8.969e-35,,,8.969e-35
220.97,1.894e-34,,,1.894e-34
221.02,4.331e-34,,,4.331e-34
221.07,9.226e-34,,,9.226e-34
221.12,1.786e-33,,,1.786e-33
221.17,3.128e-33,,,3.128e-33
221.22,4.948e-33,,,4.948e-33
221.27,7.071e-33,,,7.071e-33
221.32,9.124e-33,,,9.124e-33
221.37,1.063e-32,,,1.063e-32
221.42,1.119e-32,,,1.119e-32
221.47,1.063e-32,,,1.063e-32
221.52,9.123e-33,,,9.123e-33
221.57,7.070e-33,,,7.070e-33
221.62,4.948e-33,,,4.948e-33
221.67,3.127e-33,,,3.127e-33
221.72,1.785e-33,,,1.785e-33
221.77,9.199e-34,,,9.199e-34
221.82,4.287e-34,,,4.287e-34
221.87,1.824e-34,,,1.824e-34
221.92,7.782e-35,,,7.782e-35
221.97,5.814e-35,,,5.814e-35
222.02,1.225e-34,,,1.225e-34
222.07,3.480e-34,,,3.480e-34
222.12,9.401e-34,,,9.401e-34
222.17,2.307e-33,,,2.307e-33
222.22,5.120e-33,,,5.120e-33
222.27,1.027e-32,,,1.027e-32
222.32,1.864e-32,,,1.864e-32
222.37,3.060e-32,,,3.060e-32
222.42,4.548e-32,,,4.548e-32
222.47,6.135e-32,,,6.135e-32
222.52,7.548e-32,,,7.548e-32
222.57,8.577e-32,,,8.577e-32
222.62,9.237e-32,,,9.237e-32
222.67,9.887e-32,,,9.887e-32
222.72,1.118e-31,,,1.118e-31
222.77,1.385e-31,,,1.385e-31
222.82,1.828e-31,,,1.828e-31
222.87,2.425e-31,,,2.425e-31
222.92,3.074e-31,,,3.074e-31
222.97,3.621e-31,,,3.621e-31
223.02,3.915e-31,,,3.915e-31
223.07,3.870e-31,,,3.870e-31
223.12,3.498e-31,,,3.498e-31
223.17,2.898e-31,,,2.898e-31
223.22,2.209e-31,,,2.209e-31
223.27,1.557e-31,,,1.557e-31
223.32,1.020e-31,,,1.020e-31
223.37,6.249e-32,,,6.249e-32
223.42,3.602e-32,,,3.602e-32
223.47,1.990e-32,,,1.990e-32
223.52,1.134e-32,,,1.134e-32
223.57,8.246e-33,,,8.246e-33
223.62,9.482e-33,,,9.482e-33
223.67,1.457e-32,,,1.457e-32
223.72,2.319e-32,,,2.319e-32
223.77,3.456e-32,,,3.456e-32
223.82,4.697e-32,,,4.697e-32
223.87,5.788e-32,,,5.788e-32
223.92,6.458e-32,,,6.458e-32
223.97,6.523e-32,,,6.523e-32
224.02,5.967e-32,,,5.967e-32
224.07,4.949e-32,,,4.949e-32
224.12,3.742e-32,,,3.742e-32
224.17,2.639e-32,,,2.639e-32
224.22,1.880e-32,,,1.880e-32
224.27,1.650e-32,,,1.650e-32
224.32,2.103e-32,,,2.103e-32
224.37,3.382e-32,,,3.382e-32
224.42,5.575e-32,,,5.575e-32
224.47,8.612e-32,,,8.612e-32
224.52,1.215e-31,,,1.215e-31
224.57,1.556e-31,,,1.556e-31
224.62,1.807e-31,,,1.807e-31
224.67,1.903e-31,,,1.903e-31
224.72,1.823e-31,,,1.823e-31
224.77,1.597e-31,,,1.597e-31
224.82,1.298e-31,,,1.298e-31
224.87,1.012e-31,,,1.012e-31
224.92,8.042e-32,,,8.042e-32
224.97,7.004e-32,,,7.004e-32
225.02,6.856e-32,,,6.856e-32
225.07,7.171e-32,,,7.171e-32
225.12,7.448e-32,,,7.448e-32
225.17,7.310e-32,,,7.310e-32
225.22,6.613e-32,,,6.613e-32
225.27,5.459e-32,,,5.459e-32
225.32,4.094e-32,,,4.094e-32
225.37,2.785e-32,,,2.785e-32
225.42,1.717e-32,,,1.717e-32
225.47,9.594e-33,,,9.594e-33
225.52,4.858e-33,,,4.858e-33
225.57,2.228e-33,,,2.228e-33
225.62,9.263e-34,,,9.263e-34
225.67,3.489e-34,,,3.489e-34
225.72,1.190e-34,,,1.190e-34
225.77,3.681e-35,,,3.681e-35
225.82,1.031e-35,,,1.031e-35
225.87,2.618e-36,,,2.618e-36
225.92,6.021e-37,,,6.021e-37
225.97,1.255e-37,,,1.255e-37
226.02,2.369e-38,,,2.369e-38
226.07,4.053e-39,,,4.053e-39
226.12,6.283e-40,,,6.283e-40
226.17,8.825e-41,,,8.825e-41
226.22,1.123e-41,,,1.123e-41
226.27,1.295e-42,,,1.295e-42
226.32,1.353e-43,,,1.353e-43
226.37,1.281e-44,,,1.281e-44
226.42,1.099e-45,,,1.099e-45
226.47,9.024e-47,,,9.024e-47
226.52,7.081e-47,,,7.081e-47
226.57,7.851e-46,,,7.851e-46
226.62,8.640e-45,,,8.640e-45
226.67,8.635e-44,,,8.635e-44
226.72,7.837e-43,,,7.837e-43
226.77,6.460e-42,,,6.460e-42
226.82,4.836e-41,,,4.836e-41
226.87,3.288e-40,,,3.288e-40
226.92,2.030e-39,,,2.030e-39
226.97,1.138e-38,,,1.138e-38
227.02,5.797e-38,,,5.797e-38
227.07,2.681e-37,,,2.681e-37
227.12,1.126e-36,,,1.126e-36
227.17,4.295e-36,,,4.295e-36
227.22,1.488e-35,,,1.488e-35
227.27,4.682e-35,,,4.682e-35
227.32,1.338e-34,,,1.338e-34
227.37,3.471e-34,,,3.471e-34
227.42,8.180e-34,,,8.180e-34
227.47,1.751e-33,,,1.751e-33
227.52,3.403e-33,,,3.403e-33
227.57,6.007e-33,,,6.007e-33
227.62,9.630e-33,,,9.630e-33
227.67,1.402e-32,,,1.402e-32
227.72,1.854e-32,,,1.854e-32
227.77,2.226e-32,,,2.226e-32
227.82,2.428e-32,,,2.428e-32
227.87,2.405e-32,,,2.405e-32
227.92,2.164e-32,,,2.164e-32
227.97,1.769e-32,,,1.769e-32
228.02,1.316e-32,,,1.316e-32
228.07,8.948e-33,,,8.948e-33
228.12,5.679e-33,,,5.679e-33
228.17,3.612e-33,,,3.612e-33
228.22,2.755e-33,,,2.755e-33
228.27,2.997e-33,,,2.997e-33
228.32,4.182e-33,,,4.182e-33
228.37,6.095e-33,,,6.095e-33
228.42,8.403e-33,,,8.403e-33
228.47,1.064e-32,,,1.064e-32
228.52,1.227e-32,,,1.227e-32
228.57,1.287e-32,,,1.287e-32
228.62,1.227e-32,,,1.227e-32
228.67,1.062e-32,,,1.062e-32
228.72,8.364e-33,,,8.364e-33
228.77,5.983e-33,,,5.983e-33
228.82,3.889e-33,,,3.889e-33
228.87,2.298e-33,,,2.298e-33
228.92,1.233e-33,,,1.233e-33
228.97,6.017e-34,,,6.017e-34
229.02,2.667e-34,,,2.667e-34
229.07,1.074e-34,,,1.074e-34
229.12,3.933e-35,,,3.933e-35
229.17,1.308e-35,,,1.308e-35
229.22,3.955e-36,,,3.955e-36
229.27,1.087e-36,,,1.087e-36
229.32,2.712e-37,,,2.712e-37
229.37,6.153e-38,,,6.153e-38
229.42,1.268e-38,,,1.268e-38
229.47,2.376e-39,,,2.376e-39
229.52,4.045e-40,,,4.045e-40
229.57,6.257e-41,,,6.257e-41
229.62,8.796e-42,,,8.796e-42
229.67,1.124e-42,,,1.124e-42
229.72,1.319e-43,,,1.319e-43
229.77,2.892e-44,,,2.892e-44
229.82,1.463e-43,,,1.463e-43
229.87,1.263e-42,,,1.263e-42
229.92,1.002e-41,,,1.002e-41
229.97,7.235e-41,,,7.235e-41
230.02,4.758e-40,,,4.758e-40
230.07,2.849e-39,,,2.849e-39
230.12,1.553e-38,,,1.553e-38
230.17,7.711e-38,,,7.711e-38
230.22,3.486e-37,,,3.486e-37
230.27,1.435e-36,,,1.435e-36
230.32,5.378e-36,,,5.378e-36
230.37,1.835e-35,,,1.835e-35
230.42,5.703e-35,,,5.703e-35
230.47,1.614e-34,,,1.614e-34
230.52,4.157e-34,,,4.157e-34
230.57,9.753e-34,,,9.753e-34
230.62,2.083e-33,,,2.083e-33
230.67,4.052e-33,,,4.052e-33
230.72,7.177e-33,,,7.177e-33
230.77,1.157e-32,,,1.157e-32
230.82,1.699e-32,,,1.699e-32
230.87,2.272e-32,,,2.272e-32
230.92,2.766e-32,,,2.766e-32
230.97,3.067e-32,,,3.067e-32
231.02,3.096e-32,,,3.096e-32
231.07,2.845e-32,,,2.845e-32
231.12,2.381e-32,,,2.381e-32
231.17,1.815e-32,,,1.815e-32
231.22,1.259e-32,,,1.259e-32
231.27,7.956e-33,,,7.956e-33
231.32,4.577e-33,,,4.577e-33
231.37,2.398e-33,,,2.398e-33
231.42,1.144e-33,,,1.144e-33
231.47,4.967e-34,,,4.967e-34
231.52,1.965e-34,,,1.965e-34
231.58,5.703e-35,,,5.703e-35
231.63,1.835e-35,,,1.835e-35
231.68,5.378e-36,,,5.378e-36
231.73,1.435e-36,,,1.435e-36
231.78,3.486e-37,,,3.486e-37
231.83,7.711e-38,,,7.711e-38
231.88,1.553e-38,,,1.553e-38
231.93,2.849e-39,,,2.849e-39
231.98,4.758e-40,,,4.758e-40
232.03,7.235e-41,,,7.235e-41
232.08,1.002e-41,,,1.002e-41
232.13,1.263e-42,,,1.263e-42
232.18,1.450e-43,,,1.450e-43
232.23,1.516e-44,,,1.516e-44
232.28,1.443e-45,,,1.443e-45
232.33,1.251e-46,,,1.251e-46
232.38,9.870e-48,,,9.870e-48
237.28,1.521e-48,,,1.521e-48
237.33,1.759e-47,,,1.759e-47
237.38,1.864e-46,,,1.864e-46
237.43,1.810e-45,,,1.810e-45
237.48,1.609e-44,,,1.609e-44
237.53,1.310e-43,,,1.310e-43
237.58,9.776e-43,,,9.776e-43
237.63,6.681e-42,,,6.681e-42
237.68,4.182e-41,,,4.182e-41
237.73,2.397e-40,,,2.397e-40
237.78,1.259e-39,,,1.259e-39
237.83,6.057e-39,,,6.057e-39
237.88,2.669e-38,,,2.669e-38
237.93,1.077e-37,,,1.077e-37
237.98,3.982e-37,,,3.982e-37
238.03,1.349e-36,,,1.349e-36
238.08,4.183e-36,,,4.183e-36
238.13,1.189e-35,,,1.189e-35
